wavelength,excitation,wavelength,emission
300,0.161,530,0.001
301,0.126,531,0.002
302,0.111,532,0.002
303,0.099,533,0.002
304,0.087,534,0.003
305,0.079,535,0.003
306,0.073,536,0.004
307,0.069,537,0.008
308,0.066,538,0.017
309,0.064,539,0.023
310,0.063,540,0.022
311,0.064,541,0.016
312,0.066,542,0.013
313,0.068,543,0.014
314,0.07,544,0.016
315,0.074,545,0.019
316,0.077,546,0.021
317,0.082,547,0.024
318,0.087,548,0.029
319,0.092,549,0.033
320,0.098,550,0.038
321,0.103,551,0.043
322,0.108,552,0.048
323,0.113,553,0.055
324,0.117,554,0.061
325,0.121,555,0.068
326,0.126,556,0.075
327,0.13,557,0.084
328,0.136,558,0.093
329,0.141,559,0.102
330,0.149,560,0.111
331,0.156,561,0.121
332,0.163,562,0.132
333,0.171,563,0.146
334,0.179,564,0.158
335,0.188,565,0.171
336,0.194,566,0.186
337,0.197,567,0.204
338,0.2,568,0.222
339,0.2,569,0.241
340,0.195,570,0.263
341,0.19,571,0.288
342,0.181,572,0.314
343,0.171,573,0.342
344,0.162,574,0.372
345,0.152,575,0.407
346,0.143,576,0.443
347,0.136,577,0.474
348,0.13,578,0.517
349,0.125,579,0.557
350,0.122,580,0.595
351,0.119,581,0.637
352,0.117,582,0.675
353,0.115,583,0.714
354,0.113,584,0.752
355,0.112,585,0.786
356,0.112,586,0.821
357,0.11,587,0.853
358,0.11,588,0.88
359,0.108,589,0.908
360,0.107,590,0.937
361,0.107,591,0.95
362,0.106,592,0.971
363,0.105,593,0.985
364,0.103,594,0.988
365,0.103,595,0.994
366,0.101,596,1
367,0.1,597,0.998
368,0.098,598,0.992
369,0.096,599,0.986
370,0.093,600,0.969
371,0.091,601,0.959
372,0.088,602,0.938
373,0.084,603,0.928
374,0.08,604,0.909
375,0.077,605,0.886
376,0.074,606,0.868
377,0.069,607,0.848
378,0.065,608,0.827
379,0.062,609,0.804
380,0.059,610,0.785
381,0.055,611,0.762
382,0.052,612,0.743
383,0.049,613,0.724
384,0.047,614,0.705
385,0.044,615,0.688
386,0.042,616,0.668
387,0.039,617,0.654
388,0.037,618,0.636
389,0.036,619,0.618
390,0.033,620,0.603
391,0.031,621,0.593
392,0.029,622,0.578
393,0.027,623,0.562
394,0.025,624,0.554
395,0.023,625,0.541
396,0.021,626,0.533
397,0.019,627,0.52
398,0.017,628,0.512
399,0.015,629,0.505
400,0.013,630,0.493
401,0.012,631,0.488
402,0.01,632,0.481
403,0.009,633,0.473
404,0.008,634,0.464
405,0.007,635,0.463
406,0.006,636,0.456
407,0.005,637,0.447
408,0.004,638,0.445
409,0.004,639,0.438
410,0.003,640,0.427
411,0.003,641,0.424
412,0.003,642,0.415
413,0.003,643,0.411
414,0.003,644,0.408
415,0.002,645,0.4
416,0.003,646,0.392
417,0.002,647,0.384
418,0.003,648,0.378
419,0.003,649,0.371
420,0.003,650,0.366
421,0.003,651,0.358
422,0.003,652,0.352
423,0.003,653,0.344
424,0.004,654,0.335
425,0.004,655,0.331
426,0.004,656,0.32
427,0.004,657,0.312
428,0.004,658,0.305
429,0.005,659,0.3
430,0.005,660,0.291
431,0.005,661,0.285
432,0.006,662,0.278
433,0.006,663,0.27
434,0.006,664,0.261
435,0.007,665,0.255
436,0.007,666,0.251
437,0.008,667,0.239
438,0.008,668,0.24
439,0.009,669,0.23
440,0.009,670,0.224
441,0.01,671,0.217
442,0.01,672,0.208
443,0.011,673,0.205
444,0.012,674,0.2
445,0.013,675,0.191
446,0.013,676,0.187
447,0.015,677,0.182
448,0.015,678,0.177
449,0.016,679,0.173
450,0.017,680,0.167
451,0.018,681,0.161
452,0.02,682,0.157
453,0.021,683,0.153
454,0.022,684,0.15
455,0.024,685,0.144
456,0.025,686,0.141
457,0.027,687,0.136
458,0.028,688,0.13
459,0.03,689,0.13
460,0.031,690,0.127
461,0.033,691,0.122
462,0.035,692,0.12
463,0.036,693,0.119
464,0.038,694,0.114
465,0.04,695,0.111
466,0.043,696,0.11
467,0.044,697,0.107
468,0.046,698,0.104
469,0.048,699,0.101
470,0.051,700,0.1
471,0.053,,
472,0.056,,
473,0.058,,
474,0.06,,
475,0.064,,
476,0.067,,
477,0.07,,
478,0.074,,
479,0.078,,
480,0.082,,
481,0.085,,
482,0.089,,
483,0.094,,
484,0.098,,
485,0.103,,
486,0.108,,
487,0.114,,
488,0.119,,
489,0.124,,
490,0.13,,
491,0.136,,
492,0.141,,
493,0.147,,
494,0.153,,
495,0.159,,
496,0.165,,
497,0.172,,
498,0.179,,
499,0.184,,
500,0.19,,
501,0.197,,
502,0.203,,
503,0.21,,
504,0.217,,
505,0.225,,
506,0.232,,
507,0.241,,
508,0.249,,
509,0.257,,
510,0.267,,
511,0.276,,
512,0.286,,
513,0.297,,
514,0.307,,
515,0.318,,
516,0.332,,
517,0.345,,
518,0.355,,
519,0.369,,
520,0.384,,
521,0.398,,
522,0.413,,
523,0.428,,
524,0.444,,
525,0.461,,
526,0.475,,
527,0.491,,
528,0.506,,
529,0.519,,
530,0.537,,
531,0.548,,
532,0.557,,
533,0.569,,
534,0.578,,
535,0.59,,
536,0.596,,
537,0.605,,
538,0.609,,
539,0.615,,
540,0.622,,
541,0.624,,
542,0.63,,
543,0.635,,
544,0.641,,
545,0.646,,
546,0.65,,
547,0.658,,
548,0.666,,
549,0.671,,
550,0.68,,
551,0.687,,
552,0.699,,
553,0.707,,
554,0.718,,
555,0.734,,
556,0.745,,
557,0.756,,
558,0.77,,
559,0.784,,
560,0.798,,
561,0.813,,
562,0.834,,
563,0.85,,
564,0.868,,
565,0.885,,
566,0.903,,
567,0.921,,
568,0.935,,
569,0.952,,
570,0.965,,
571,0.979,,
572,0.99,,
573,0.997,,
574,0.999,,
575,1,,
576,0.994,,
577,0.984,,
578,0.971,,
579,0.952,,
580,0.926,,
581,0.901,,
582,0.868,,
583,0.83,,
584,0.796,,
585,0.756,,
586,0.711,,
587,0.67,,
588,0.626,,
589,0.582,,
590,0.538,,
591,0.492,,
592,0.449,,
593,0.411,,
594,0.37,,
595,0.335,,
596,0.303,,
597,0.27,,
598,0.242,,
599,0.213,,
600,0.185,,
601,0.162,,
602,0.142,,
603,0.123,,
604,0.106,,
605,0.092,,
606,0.08,,
607,0.069,,
608,0.06,,
609,0.051,,
610,0.044,,
611,0.038,,
612,0.032,,
613,0.028,,
614,0.024,,
615,0.021,,
616,0.018,,
617,0.016,,
618,0.013,,
619,0.012,,
620,0.01,,
621,0.009,,
622,0.008,,
623,0.007,,
624,0.006,,
625,0.005,,
626,0.004,,
627,0.004,,
628,0.003,,
629,0.003,,
630,0.003,,
