wavelength,excitation,wavelength,emission
300,0.192,545,0.023
301,0.157,546,0.026
302,0.122,547,0.031
303,0.108,548,0.036
304,0.098,549,0.042
305,0.09,550,0.049
306,0.084,551,0.057
307,0.08,552,0.065
308,0.078,553,0.074
309,0.076,554,0.085
310,0.076,555,0.097
311,0.077,556,0.111
312,0.079,557,0.127
313,0.081,558,0.145
314,0.084,559,0.165
315,0.087,560,0.185
316,0.091,561,0.211
317,0.096,562,0.239
318,0.1,563,0.269
319,0.105,564,0.304
320,0.11,565,0.341
321,0.115,566,0.382
322,0.12,567,0.425
323,0.124,568,0.47
324,0.13,569,0.513
325,0.135,570,0.561
326,0.139,571,0.609
327,0.145,572,0.66
328,0.15,573,0.705
329,0.156,574,0.75
330,0.161,575,0.794
331,0.167,576,0.834
332,0.173,577,0.868
333,0.179,578,0.902
334,0.183,579,0.926
335,0.188,580,0.951
336,0.19,581,0.968
337,0.191,582,0.984
338,0.192,583,0.994
339,0.189,584,0.998
340,0.185,585,1
341,0.179,586,0.998
342,0.173,587,0.992
343,0.167,588,0.98
344,0.161,589,0.968
345,0.154,590,0.952
346,0.147,591,0.938
347,0.142,592,0.92
348,0.136,593,0.9
349,0.131,594,0.879
350,0.126,595,0.858
351,0.122,596,0.837
352,0.117,597,0.816
353,0.113,598,0.795
354,0.11,599,0.775
355,0.107,600,0.755
356,0.104,601,0.737
357,0.102,602,0.718
358,0.099,603,0.7
359,0.097,604,0.682
360,0.096,605,0.667
361,0.093,606,0.652
362,0.091,607,0.638
363,0.089,608,0.624
364,0.087,609,0.612
365,0.085,610,0.602
366,0.083,611,0.591
367,0.08,612,0.58
368,0.077,613,0.572
369,0.074,614,0.561
370,0.071,615,0.554
371,0.068,616,0.545
372,0.065,617,0.535
373,0.061,618,0.528
374,0.058,619,0.52
375,0.056,620,0.515
376,0.052,621,0.506
377,0.05,622,0.499
378,0.047,623,0.494
379,0.044,624,0.487
380,0.042,625,0.48
381,0.04,626,0.474
382,0.038,627,0.468
383,0.036,628,0.461
384,0.034,629,0.455
385,0.032,630,0.446
386,0.03,631,0.442
387,0.028,632,0.433
388,0.026,633,0.427
389,0.025,634,0.418
390,0.023,635,0.412
391,0.021,636,0.402
392,0.019,637,0.396
393,0.018,638,0.389
394,0.016,639,0.38
395,0.014,640,0.371
396,0.013,641,0.365
397,0.012,642,0.356
398,0.011,643,0.35
399,0.01,644,0.342
400,0.009,645,0.332
401,0.008,646,0.324
402,0.007,647,0.316
403,0.006,648,0.306
404,0.006,649,0.297
405,0.005,650,0.29
406,0.005,651,0.281
407,0.005,652,0.274
408,0.004,653,0.266
409,0.004,654,0.258
410,0.004,655,0.251
411,0.004,656,0.241
412,0.004,657,0.234
413,0.004,658,0.225
414,0.004,659,0.221
415,0.004,660,0.212
416,0.004,661,0.207
417,0.004,662,0.199
418,0.004,663,0.194
419,0.004,664,0.189
420,0.005,665,0.183
421,0.005,666,0.178
422,0.005,667,0.173
423,0.005,668,0.169
424,0.005,669,0.164
425,0.006,670,0.158
426,0.006,671,0.155
427,0.006,672,0.151
428,0.006,673,0.147
429,0.007,674,0.142
430,0.007,675,0.139
431,0.008,676,0.136
432,0.008,677,0.132
433,0.008,678,0.129
434,0.009,679,0.126
435,0.009,680,0.122
436,0.01,681,0.119
437,0.01,682,0.117
438,0.011,683,0.114
439,0.011,684,0.11
440,0.012,685,0.108
441,0.013,686,0.106
442,0.014,687,0.104
443,0.014,688,0.1
444,0.015,689,0.098
445,0.016,690,0.095
446,0.017,691,0.093
447,0.018,692,0.092
448,0.019,693,0.089
449,0.02,694,0.087
450,0.021,695,0.085
451,0.022,696,0.084
452,0.024,697,0.08
453,0.025,698,0.08
454,0.026,699,0.078
455,0.028,700,0.076
456,0.03,,
457,0.031,,
458,0.033,,
459,0.035,,
460,0.037,,
461,0.038,,
462,0.04,,
463,0.042,,
464,0.044,,
465,0.046,,
466,0.049,,
467,0.051,,
468,0.053,,
469,0.055,,
470,0.057,,
471,0.06,,
472,0.064,,
473,0.066,,
474,0.069,,
475,0.072,,
476,0.076,,
477,0.079,,
478,0.084,,
479,0.088,,
480,0.093,,
481,0.097,,
482,0.101,,
483,0.106,,
484,0.111,,
485,0.116,,
486,0.121,,
487,0.127,,
488,0.132,,
489,0.136,,
490,0.143,,
491,0.148,,
492,0.153,,
493,0.158,,
494,0.164,,
495,0.168,,
496,0.174,,
497,0.18,,
498,0.185,,
499,0.191,,
500,0.198,,
501,0.204,,
502,0.211,,
503,0.217,,
504,0.224,,
505,0.232,,
506,0.241,,
507,0.249,,
508,0.258,,
509,0.268,,
510,0.28,,
511,0.29,,
512,0.301,,
513,0.314,,
514,0.327,,
515,0.339,,
516,0.353,,
517,0.369,,
518,0.383,,
519,0.4,,
520,0.415,,
521,0.43,,
522,0.446,,
523,0.461,,
524,0.477,,
525,0.492,,
526,0.505,,
527,0.518,,
528,0.529,,
529,0.538,,
530,0.548,,
531,0.557,,
532,0.564,,
533,0.571,,
534,0.577,,
535,0.584,,
536,0.588,,
537,0.594,,
538,0.599,,
539,0.608,,
540,0.611,,
541,0.619,,
542,0.624,,
543,0.633,,
544,0.64,,
545,0.651,,
546,0.66,,
547,0.671,,
548,0.683,,
549,0.694,,
550,0.708,,
551,0.724,,
552,0.736,,
553,0.753,,
554,0.771,,
555,0.789,,
556,0.809,,
557,0.825,,
558,0.847,,
559,0.869,,
560,0.89,,
561,0.91,,
562,0.931,,
563,0.946,,
564,0.964,,
565,0.979,,
566,0.989,,
567,0.997,,
568,1,,
569,0.998,,
570,0.993,,
571,0.982,,
572,0.966,,
573,0.946,,
574,0.918,,
575,0.891,,
576,0.857,,
577,0.822,,
578,0.782,,
579,0.739,,
580,0.695,,
581,0.65,,
582,0.605,,
583,0.56,,
584,0.518,,
585,0.476,,
586,0.434,,
587,0.395,,
588,0.357,,
589,0.323,,
590,0.288,,
591,0.253,,
592,0.224,,
593,0.203,,
594,0.18,,
595,0.164,,
596,0.151,,
597,0.136,,
598,0.121,,
599,0.107,,
600,0.098,,
601,0.088,,
602,0.078,,
603,0.071,,
604,0.063,,
605,0.056,,
